TEXTURE AT STRAIN =    1.9000
   1.000   4.448   0.221  <-- length of phase ellipsoid axes
   90.00    0.00    0.00  <-- Euler angles (deg) of phase ellipsoid axes
B     460
 240.076   54.202  201.804    1.000
 257.178   32.921  188.638    1.000
  90.189   14.053  251.882    1.000
 144.394   71.905  140.462    1.000
 217.691   32.602  109.359    1.000
 155.129   55.417  192.843    1.000
  72.891   62.258  225.047    1.000
  74.566   42.361  182.572    1.000
 129.744   65.094  220.559    1.000
 192.800   40.508   39.447    1.000
 245.688   51.574   84.928    1.000
 236.826   36.543  246.231    1.000
 240.625   82.991  187.312    1.000
 151.559   49.201   88.718    1.000
 239.168  130.057   97.293    1.000
  71.974   73.779  187.401    1.000
 284.573   26.898  150.578    1.000
 252.113   67.370  113.182    1.000
 251.766   73.229  142.094    1.000
 162.248   25.014   89.119    1.000
 284.596    8.759  153.675    1.000
 240.346   82.535  110.135    1.000
 125.902   63.149  222.942    1.000
 240.191  100.889   96.620    1.000
 290.478   29.610  223.349    1.000
 161.951   73.420  140.444    1.000
 127.357   59.886  145.600    1.000
  71.564  106.365  219.629    1.000
 165.009   59.577   82.776    1.000
 243.196   80.653  185.899    1.000
  71.409   71.099  202.740    1.000
 322.759   72.965  142.862    1.000
  53.726   28.660  180.011    1.000
 239.473  109.294  121.782    1.000
 148.002   30.416  194.841    1.000
  73.136   44.472  174.656    1.000
 139.813   90.724  251.146    1.000
 144.076   30.438  276.309    1.000
  99.773   34.850  246.245    1.000
 131.537   43.154  127.759    1.000
  71.125  113.574  201.800    1.000
 158.299   62.745   95.087    1.000
 237.613   33.336  101.718    1.000
 318.316   71.309  146.364    1.000
 218.878  108.276   87.456    1.000
 259.975   36.370  162.120    1.000
 176.420   59.445  241.206    1.000
 303.639   60.379  148.763    1.000
 251.807   49.912  209.892    1.000
 146.394   43.531   93.623    1.000
  78.629   23.096  144.238    1.000
 140.362   66.530  289.779    1.000
 153.111   25.130   85.088    1.000
  58.742   83.848  200.413    1.000
 262.079   43.038   82.424    1.000
 236.891  127.865  112.737    1.000
  81.185   26.197  260.085    1.000
 249.943   65.849  144.272    1.000
  70.251   62.068  233.274    1.000
 303.219  111.416  130.905    1.000
 338.777   50.570  163.629    1.000
 176.191   27.690  148.983    1.000
  57.937   71.064  197.609    1.000
 201.149   15.488  137.053    1.000
 181.023   60.819  142.191    1.000
 236.151   56.053  186.948    1.000
 330.474   31.659  177.033    1.000
 198.789   51.613   25.028    1.000
 173.991   91.962  249.025    1.000
 153.787   78.501  147.839    1.000
 154.841   83.576  288.448    1.000
 249.173   66.785   87.595    1.000
 250.667   26.288   77.551    1.000
 249.181   65.399   90.927    1.000
 142.923   41.006   95.762    1.000
  57.002   78.301  202.297    1.000
 236.847   73.749  148.474    1.000
 236.903   77.133  102.186    1.000
 172.711   46.431  144.311    1.000
  92.814   65.711  262.664    1.000
 103.178   27.518  148.446    1.000
 278.639   29.844  153.320    1.000
 236.894   91.871  132.507    1.000
  36.153   42.960  193.894    1.000
 311.940   45.444  200.326    1.000
 117.736   64.311  155.913    1.000
 143.905    7.250  193.924    1.000
 249.813  133.745  115.455    1.000
 230.683   30.021  159.363    1.000
 304.424   36.790  206.750    1.000
  69.718   44.171  234.127    1.000
 236.406   94.199  104.452    1.000
 101.165   36.041  242.292    1.000
 133.033   48.115  214.715    1.000
 296.691  108.775  123.875    1.000
 173.256   44.342   68.166    1.000
 168.402   64.177  133.970    1.000
 174.889   54.641  224.543    1.000
 118.737   45.706  139.250    1.000
 246.943  107.805   98.710    1.000
 247.445   56.165  163.841    1.000
 140.964   90.780  308.777    1.000
  48.679   30.792  196.054    1.000
 242.420   56.467  184.581    1.000
  52.482   43.571  160.763    1.000
  66.621  117.181  228.092    1.000
  76.015    6.983  158.874    1.000
 232.530   48.154   54.224    1.000
  54.349   73.191  220.149    1.000
 142.729   67.792  122.395    1.000
 198.470   53.223  111.230    1.000
 100.425   64.079  256.237    1.000
 174.647   47.008   63.110    1.000
 260.828   66.997   87.130    1.000
  53.972   85.786  230.852    1.000
 146.068   71.794  263.149    1.000
 205.039   71.552  108.776    1.000
 233.266   71.045   93.078    1.000
  65.248   60.095  203.916    1.000
 123.750   43.111  205.828    1.000
 248.723   34.114  192.182    1.000
 132.661   52.949  197.021    1.000
 322.021   60.073  182.405    1.000
 182.164   64.983  131.182    1.000
 306.578   75.013  134.903    1.000
  52.929   85.215  178.139    1.000
 231.446   53.843  236.213    1.000
  64.125   71.474  211.441    1.000
 261.886   23.387  163.598    1.000
 135.524   73.896  234.877    1.000
 232.433   79.300  102.244    1.000
 144.427   81.958  242.208    1.000
 141.207   82.496  165.346    1.000
 229.733   44.071  248.137    1.000
 125.651  101.088  218.792    1.000
 101.120   31.261  236.975    1.000
 282.762   23.094  221.402    1.000
 212.919   71.533  104.203    1.000
 231.721   86.056   74.068    1.000
 242.806   88.049  159.951    1.000
 137.113   68.302  191.495    1.000
 285.695   25.305  128.433    1.000
 125.811   95.532  208.879    1.000
  65.373  139.510  219.052    1.000
 107.150   44.901  132.743    1.000
 230.564  114.865  115.583    1.000
 244.081   49.627  126.210    1.000
  64.500   44.684  228.164    1.000
 141.150   88.727  254.236    1.000
 206.417   34.169  109.718    1.000
 102.803   71.158  243.546    1.000
 158.272   53.123  241.587    1.000
 118.304   61.216  236.431    1.000
 162.633   57.994  250.501    1.000
 243.540   33.358   89.529    1.000
 226.671   36.450   52.724    1.000
 130.608   76.815  304.451    1.000
 324.028   56.646  173.544    1.000
 242.037   65.534  131.402    1.000
  62.009  113.949  230.750    1.000
 229.841   66.576   64.408    1.000
 149.855   43.502  166.552    1.000
 241.717   62.524  114.998    1.000
  30.011   40.952  193.609    1.000
 190.666   56.750   35.010    1.000
 197.785   63.404  115.311    1.000
 229.115  105.822  136.260    1.000
  74.981   62.610  164.333    1.000
 225.997   41.467   63.101    1.000
 303.622   87.475  157.920    1.000
 242.275   44.755  203.914    1.000
 205.220   35.716  120.204    1.000
 297.652  129.435  149.337    1.000
 228.656   83.839  102.450    1.000
 261.556   24.055  149.012    1.000
  78.856   58.980  172.520    1.000
  65.241   29.696  213.121    1.000
 300.213   99.361  124.048    1.000
 121.315   59.657  138.029    1.000
 224.489   39.740  170.928    1.000
 131.148   93.586  222.756    1.000
 154.806   45.054   81.635    1.000
  67.929   22.299  233.210    1.000
 219.427   24.218   45.047    1.000
 290.643   68.744  141.080    1.000
  99.819   33.473  132.110    1.000
 207.196   12.962   92.841    1.000
  96.970   45.432  138.926    1.000
  97.029   22.401  131.957    1.000
 196.003   70.998  110.244    1.000
 189.878   71.356  279.105    1.000
 225.056   50.490  145.680    1.000
 299.896   60.881  120.697    1.000
 240.296   43.935  241.269    1.000
 196.872    9.631   70.669    1.000
 132.676   88.381  220.661    1.000
 286.990  130.375  140.145    1.000
  77.291   40.187  153.855    1.000
 225.722   89.634  116.340    1.000
 151.684   20.527  252.912    1.000
 225.503   80.006  125.057    1.000
 168.316   73.575  287.993    1.000
 168.768   73.980  127.795    1.000
 246.620   20.345  196.550    1.000
 199.078   69.651  108.331    1.000
  92.112   24.894  135.391    1.000
 138.502   97.714  211.419    1.000
 107.826  106.806  213.758    1.000
 224.669   78.380  107.235    1.000
 303.191   51.814  197.710    1.000
 217.076   70.938   88.507    1.000
  60.673   30.519  153.133    1.000
 322.449   69.842  155.492    1.000
 168.301    7.466   55.501    1.000
 203.179  109.993   86.552    1.000
 167.759   12.068   55.092    1.000
 269.200   37.055  140.096    1.000
 128.241   90.079  238.316    1.000
 120.055   39.156  196.810    1.000
 197.683   66.683   97.130    1.000
 105.050   62.868  153.831    1.000
 145.467   68.621  147.016    1.000
 121.150   89.407  286.839    1.000
  97.972   33.661  129.420    1.000
 147.080   20.851  254.375    1.000
 141.431   48.936  166.467    1.000
 112.596  121.577  236.403    1.000
 304.787   85.268  136.868    1.000
 108.155   92.958  286.523    1.000
 133.725  121.691  273.411    1.000
 216.462   80.445   97.451    1.000
  92.369   84.363  256.555    1.000
 220.217   53.408   67.821    1.000
 215.046  108.164   91.801    1.000
 215.504   28.938   68.243    1.000
 247.491    6.139  154.091    1.000
 220.680  112.472  119.034    1.000
 106.612   78.966  172.181    1.000
 106.718   72.129  161.630    1.000
 273.701   47.032  136.973    1.000
 159.262   68.469  300.149    1.000
  75.358   73.115  254.475    1.000
 190.067   98.774   90.490    1.000
 278.037   54.358  136.106    1.000
 219.968   99.054  114.270    1.000
 118.460   65.069  204.413    1.000
 118.171   60.395  201.793    1.000
 219.781   94.520  154.536    1.000
 232.624   48.267  214.753    1.000
 258.744   39.152  146.784    1.000
 173.177   42.815  126.588    1.000
 105.051   76.975  258.998    1.000
 230.603   75.349  125.044    1.000
 117.692   68.512  207.805    1.000
 131.282   95.960  202.944    1.000
 111.409   78.585  232.202    1.000
  99.784   42.138  126.063    1.000
 279.157  104.961  119.358    1.000
 155.765   68.750  120.731    1.000
 100.689  105.974  212.237    1.000
 260.849   37.509  142.807    1.000
 112.562  107.401  230.335    1.000
 217.574   79.779  200.752    1.000
 279.619  132.633  142.704    1.000
 145.777   28.565   69.354    1.000
 261.411   97.757  103.199    1.000
 207.322   22.789  188.757    1.000
 216.766   75.053  155.486    1.000
 155.086   21.930  239.734    1.000
 266.493   36.752  226.003    1.000
 237.849   20.730  206.613    1.000
 115.965   43.051  193.884    1.000
 285.956   33.565  113.700    1.000
 269.356   48.088  137.029    1.000
 121.773   86.012  279.923    1.000
 214.031   53.118   35.918    1.000
 317.140   64.822  153.037    1.000
 279.638   45.726  124.005    1.000
 300.249   94.551  142.603    1.000
 210.692   34.649  254.962    1.000
 214.953   82.352  101.454    1.000
 286.792    5.629  108.364    1.000
 170.825    4.999  134.146    1.000
 191.483   24.786  111.067    1.000
 274.077   48.513  130.632    1.000
 194.093   58.088  110.565    1.000
 207.886   26.565  266.606    1.000
 105.101  124.453  238.608    1.000
 149.339   65.942  150.731    1.000
 192.186   73.512  104.773    1.000
 214.601   87.388   51.812    1.000
 214.302   81.879  110.311    1.000
 303.796   90.448  178.294    1.000
 160.720   45.493  131.979    1.000
 212.931   61.305  156.410    1.000
 265.848   78.868   86.226    1.000
 204.524   51.329  273.607    1.000
 196.818   39.384  281.673    1.000
 212.388   60.917   64.548    1.000
 162.283   13.467   49.891    1.000
 184.836   64.439  279.658    1.000
 119.994   76.264  280.994    1.000
 212.615  105.696  123.624    1.000
  95.517  109.822  216.957    1.000
 207.462   32.877   84.402    1.000
 253.260   72.708  161.344    1.000
 104.428   82.676  176.684    1.000
 128.655   84.011  283.895    1.000
 196.607   60.151   94.653    1.000
 294.761   82.934  125.735    1.000
 138.557   42.047  246.588    1.000
 209.727   62.156   54.158    1.000
 297.240   30.594  183.829    1.000
 210.460   93.399  110.577    1.000
 284.068   44.331  112.191    1.000
 270.893    6.957  209.546    1.000
  84.534   69.846  240.440    1.000
 147.345   45.170  142.711    1.000
 137.285   49.095  153.174    1.000
 146.599   50.832  319.241    1.000
  76.509   37.951  138.030    1.000
 208.192   76.822   75.702    1.000
 206.690   53.342   62.790    1.000
 299.512   86.214  129.440    1.000
 272.388  100.817  117.574    1.000
 204.515   38.705   61.510    1.000
 205.641   45.268   44.483    1.000
 268.174  120.856  133.712    1.000
 208.110   93.972  135.012    1.000
 150.466   48.110  135.311    1.000
 118.802   62.815  177.746    1.000
 286.116   99.355  135.111    1.000
 286.238  105.689  146.444    1.000
 118.129   84.158  264.231    1.000
 249.341   98.925  103.502    1.000
 111.222   71.000  196.750    1.000
 154.437   51.452  127.029    1.000
 206.206  101.488  115.987    1.000
 294.006   87.592  120.201    1.000
 261.593   52.133  137.078    1.000
 134.321   62.761  142.572    1.000
 277.102   69.098  152.184    1.000
  94.695   59.391  215.726    1.000
 199.468   78.250   86.684    1.000
 109.508   44.983  278.155    1.000
 110.937   96.106  240.584    1.000
 103.659  100.472  194.370    1.000
 200.462   33.654   53.813    1.000
 112.804   97.044  254.291    1.000
 262.219   31.632  126.813    1.000
 234.902   13.472  200.011    1.000
 263.084   54.112  135.083    1.000
 285.282   82.713  134.735    1.000
 272.257   90.811  169.565    1.000
 287.969   54.696  119.160    1.000
 279.655   53.590  112.995    1.000
  97.337  103.103  222.344    1.000
 175.693   81.632   88.903    1.000
 134.344   55.689  144.534    1.000
 289.897   48.082  184.740    1.000
 202.687   87.237  161.018    1.000
 201.687   59.220  256.215    1.000
 290.081   36.827  182.945    1.000
 312.667   48.409  149.379    1.000
 212.728   77.651  208.026    1.000
 106.669   59.884  189.083    1.000
 107.023  104.087  254.257    1.000
 271.155  107.401  134.482    1.000
  76.002   99.870  200.277    1.000
 286.549   89.481  125.237    1.000
 114.622   56.698  171.469    1.000
 263.786   38.865  211.913    1.000
 165.123   47.940  125.971    1.000
 163.657   29.095  122.064    1.000
 258.863   66.210  142.851    1.000
  86.247   92.613  196.235    1.000
  93.159  106.249  227.757    1.000
 270.512   70.197  131.872    1.000
 294.896   49.033  170.385    1.000
 103.227   63.172  280.396    1.000
 280.518   60.611  194.721    1.000
 178.608   55.497   98.711    1.000
  97.526   82.136  262.677    1.000
 281.799   72.890  108.269    1.000
 263.534   49.751  213.449    1.000
 312.355   20.342  153.188    1.000
  81.973   76.137  237.431    1.000
 196.702  101.073   97.317    1.000
 262.901   41.273  210.120    1.000
 194.909   53.540   63.238    1.000
 109.902   67.904  169.530    1.000
 104.523   85.745  191.430    1.000
 194.515   54.743  247.835    1.000
 103.183   94.620  262.528    1.000
 103.793   58.553  273.089    1.000
 147.411   50.848  122.916    1.000
 112.738   97.573  243.471    1.000
 154.311   25.521  126.727    1.000
 189.117   36.911   92.970    1.000
 270.033   65.634  119.682    1.000
 280.325   95.774  154.155    1.000
 255.253   71.522  145.632    1.000
 144.260   55.099  136.398    1.000
 271.772  106.937  147.401    1.000
 193.210   98.910  106.194    1.000
 192.067   65.398   56.397    1.000
 163.652   48.545  108.312    1.000
 285.230   25.254  176.331    1.000
 108.470   48.952  170.071    1.000
  93.659  100.585  198.758    1.000
 276.229  100.632  156.791    1.000
 269.965   55.385  108.541    1.000
 254.744   91.545  103.165    1.000
  97.080   79.496  191.436    1.000
 111.081   53.862  159.463    1.000
 261.741  109.399  140.252    1.000
 124.319   11.514  153.671    1.000
 187.033   70.724   63.716    1.000
 256.232   51.769  121.478    1.000
  93.305   99.633  251.023    1.000
 140.809   40.636  127.533    1.000
  95.443   76.992  182.518    1.000
 181.214   48.606  271.254    1.000
  80.876  104.392  227.612    1.000
  88.743   89.006  233.025    1.000
 182.437   57.687  254.321    1.000
 169.866   45.616  278.010    1.000
 252.672  107.418  132.699    1.000
  80.872  107.383  236.232    1.000
  74.436   81.020  173.567    1.000
 268.719   97.688  158.709    1.000
 261.679   97.470  133.414    1.000
 270.673   73.956  182.149    1.000
 266.455   84.255  121.755    1.000
 261.978   73.521  116.904    1.000
  81.569   59.683  196.993    1.000
 268.656   86.289  106.762    1.000
  76.961  115.331  243.705    1.000
 172.679   28.497  261.969    1.000
  75.471   65.432  207.292    1.000
  76.090  113.667  244.157    1.000
 262.143   89.160  143.202    1.000
 258.122   72.150  114.592    1.000
 154.855   36.817  286.291    1.000
 263.214   88.719  123.378    1.000
 255.589   91.568  121.389    1.000
  76.986  105.495  251.025    1.000
 258.756   71.453   98.166    1.000
  73.896  101.480  247.329    1.000
 168.515   78.904  247.229    1.000
  76.007   82.785  186.450    1.000
  95.634   12.734  159.785    1.000
 143.134   17.337  111.271    1.000
 160.183  108.071  272.484    1.000
 243.169   71.772  119.037    1.000
 162.658   63.164  246.439    1.000
 161.550   68.793  249.643    1.000
 252.953   85.227  110.104    1.000
  47.594   70.135  226.534    1.000
 147.634   70.571  253.769    1.000
